Frequency,Magnitude,Phase
10,44.8,-13.2
20,43.2,-16.8
50,40.8,-24.5
100,37.5,-38.2
200,33.8,-52.6
500,28.9,-69.8
1000,23.2,-87.4
2000,16.5,-110.8
5000,8.9,-142.3
10000,0.2,-172.6
20000,-8.9,-192.8
50000,-19.8,-213.4
100000,-30.5,-233.9
200000,-40.8,-254.2
500000,-51.2,-274.8
1000000,-61.5,-295.3
