Frequency,Magnitude,Phase
10,46.8,-10.2
20,45.5,-12.8
50,43.8,-18.5
100,41.2,-28.9
200,38.5,-40.2
500,34.8,-56.8
1000,30.2,-73.5
2000,24.8,-95.2
5000,17.5,-125.8
10000,9.8,-155.2
20000,1.2,-175.8
50000,-8.5,-196.2
100000,-18.8,-216.8
200000,-29.2,-237.5
500000,-39.8,-258.2
1000000,-50.5,-279.8
