Frequency,Magnitude,Phase
10,45.5,-11.8
20,44.2,-14.5
50,42.1,-21.2
100,39.8,-33.8
200,36.5,-46.2
500,32.2,-62.8
1000,27.8,-79.5
2000,21.5,-102.8
5000,13.8,-132.4
10000,5.2,-162.8
20000,-3.2,-182.5
50000,-12.8,-202.9
100000,-22.5,-223.8
200000,-32.8,-244.5
500000,-43.2,-265.2
1000000,-53.8,-286.8
